# Drift and bounce averaged energy diffusion coefficients in s^(-1) in figure 16h for E = 5000.0keV, L* = 4.5 and Kp = 5
# Pitch Angle, 2.01 <= fpe/fce < 2.53, 2.53 <= fpe/fce < 3.19, 3.19 <= fpe/fce < 4.03, 4.03 <= fpe/fce < 5.08, 5.08 <= fpe/fce < 6.40, 6.40 <= fpe/fce < 8.08, 8.08 <= fpe/fce < 10.19, 10.19 <= fpe/fce < 12.85, 12.85 <= fpe/fce < 16.20, Average over fpe/fce
0.5000,3.2552e-18,9.9144e-11,6.1622e-12,4.0738e-12,3.6104e-12,9.1883e-13,2.9349e-15,2.6934e-17,1.4979e-18,3.1346e-12
1.4940,2.9774e-17,8.9442e-10,5.5890e-11,3.6906e-11,3.2752e-11,8.4449e-12,3.0599e-14,4.0446e-16,7.7456e-17,2.8416e-11
2.4890,8.6153e-17,2.5106e-09,1.5861e-10,1.0448e-10,9.3205e-11,2.4561e-11,1.0542e-13,2.0577e-15,5.9209e-16,8.0569e-11
3.4830,1.8079e-16,4.9861e-09,3.2015e-10,2.1021e-10,1.9039e-10,5.1245e-11,2.5985e-13,7.1854e-15,2.3951e-15,1.6261e-10
4.4780,3.3475e-16,8.3631e-09,5.4813e-10,3.5906e-10,3.3640e-10,9.1234e-11,5.5149e-13,2.1052e-14,7.1321e-15,2.7935e-10
5.4720,6.0681e-16,1.2682e-08,8.4944e-10,5.5767e-10,5.5144e-10,1.4768e-10,1.1626e-12,6.2590e-14,1.8179e-14,4.3770e-10
6.4670,1.1687e-15,1.7961e-08,1.2292e-09,8.1454e-10,8.5153e-10,2.2335e-10,2.3851e-12,1.8745e-13,4.4532e-14,6.4571e-10
7.4610,2.5183e-15,2.4177e-08,1.6999e-09,1.1393e-09,1.2524e-09,3.1999e-10,4.5637e-12,4.2640e-13,1.1124e-13,9.1376e-10
8.4560,6.0602e-15,3.1252e-08,2.2647e-09,1.5386e-09,1.7725e-09,4.3913e-10,9.3004e-12,8.1933e-13,2.5617e-13,1.2521e-09
9.4500,1.5540e-14,3.9120e-08,2.9365e-09,2.0060e-09,2.4296e-09,5.7364e-10,1.6391e-11,1.2556e-12,6.8716e-13,1.6663e-09
10.4440,4.0120e-14,4.8080e-08,3.7439e-09,2.5282e-09,3.2420e-09,7.3243e-10,2.6182e-11,2.3944e-12,1.3940e-12,2.1652e-09
11.4390,1.0026e-13,5.7962e-08,4.7369e-09,3.1234e-09,4.2010e-09,9.5720e-10,3.7935e-11,4.1830e-12,2.3206e-12,2.7694e-09
12.4330,2.3826e-13,6.8997e-08,5.8763e-09,3.8285e-09,5.1877e-09,1.3146e-09,5.1737e-11,8.8779e-12,5.1426e-12,3.4468e-09
13.4280,5.3235e-13,8.1377e-08,7.1033e-09,4.7157e-09,5.9272e-09,1.8295e-09,7.9494e-11,2.0736e-11,1.0999e-11,4.1384e-09
14.4220,1.1119e-12,9.5241e-08,8.2536e-09,5.8010e-09,6.4820e-09,2.1756e-09,1.0243e-10,2.8492e-11,2.4494e-11,4.8304e-09
15.4170,2.1642e-12,1.1069e-07,9.5266e-09,6.9820e-09,7.3806e-09,2.6290e-09,1.2459e-10,3.9465e-11,5.0354e-11,5.6953e-09
16.4110,3.9156e-12,1.2779e-07,1.0974e-08,7.9978e-09,8.3918e-09,3.1113e-09,1.6901e-10,4.7238e-11,6.7124e-11,6.5863e-09
17.4060,6.5705e-12,1.4538e-07,1.2693e-08,8.6870e-09,8.8122e-09,3.5591e-09,1.8373e-10,4.6685e-11,6.5903e-11,7.1771e-09
18.4000,1.0195e-11,1.6037e-07,1.4642e-08,9.4292e-09,9.3220e-09,3.8415e-09,1.9577e-10,4.5806e-11,8.6913e-11,7.8170e-09
19.3940,1.4572e-11,1.7198e-07,1.6073e-08,1.0524e-08,9.9503e-09,4.3701e-09,2.0958e-10,4.2500e-11,1.0692e-10,8.5906e-09
20.3890,1.9125e-11,1.9034e-07,1.6860e-08,1.0995e-08,1.0329e-08,4.3997e-09,2.1034e-10,4.0193e-11,9.9148e-11,8.8994e-09
21.3830,2.3009e-11,2.0673e-07,1.8097e-08,1.1441e-08,1.0728e-08,4.2748e-09,2.1066e-10,3.9190e-11,9.0916e-11,9.2340e-09
22.3780,2.5486e-11,2.2733e-07,1.9712e-08,1.2220e-08,1.1218e-08,4.1173e-09,2.2785e-10,4.1622e-11,8.3591e-11,9.7812e-09
23.3720,2.6501e-11,2.3610e-07,2.0283e-08,1.2552e-08,1.1272e-08,4.1215e-09,2.3771e-10,4.1833e-11,7.2758e-11,1.0100e-08
24.3670,2.7233e-11,2.4141e-07,2.0104e-08,1.2659e-08,1.1049e-08,4.0112e-09,2.3000e-10,3.9305e-11,6.8378e-11,1.0157e-08
25.3610,2.9893e-11,2.3788e-07,1.9318e-08,1.2506e-08,1.0763e-08,3.8315e-09,2.3308e-10,3.8328e-11,6.5585e-11,1.0101e-08
26.3560,3.6036e-11,2.4998e-07,2.0134e-08,1.2706e-08,9.7826e-09,3.7948e-09,2.5005e-10,4.0204e-11,6.5463e-11,1.0081e-08
27.3500,4.4844e-11,2.4015e-07,1.8931e-08,1.2118e-08,9.2800e-09,3.5741e-09,2.4420e-10,4.3100e-11,7.2667e-11,9.7931e-09
28.3440,5.3638e-11,2.3049e-07,1.8232e-08,1.1549e-08,9.0109e-09,3.4319e-09,2.4604e-10,5.1353e-11,9.3823e-11,9.6736e-09
29.3390,5.9344e-11,2.1957e-07,1.7598e-08,1.1312e-08,8.9186e-09,3.4215e-09,2.5726e-10,6.6565e-11,1.4388e-10,9.7823e-09
30.3330,5.9974e-11,2.1307e-07,1.8125e-08,1.1485e-08,8.6073e-09,3.4777e-09,2.8597e-10,1.0861e-10,2.1332e-10,1.0088e-08
31.3280,5.5244e-11,2.0785e-07,1.7840e-08,1.1270e-08,8.2196e-09,3.3156e-09,2.8977e-10,1.0307e-10,2.1097e-10,1.0242e-08
32.3220,4.6287e-11,2.0821e-07,1.7744e-08,1.1033e-08,7.9976e-09,3.1970e-09,2.9941e-10,1.0062e-10,2.0712e-10,1.0614e-08
33.3170,3.5650e-11,2.1644e-07,1.7972e-08,1.1348e-08,7.9063e-09,3.1386e-09,3.1742e-10,9.9341e-11,2.1113e-10,1.1334e-08
34.3110,2.7187e-11,2.2571e-07,1.8780e-08,1.2629e-08,8.2151e-09,3.1390e-09,3.5270e-10,1.0264e-10,2.1741e-10,1.2585e-08
35.3060,2.4460e-11,2.2460e-07,1.8838e-08,1.2347e-08,8.0410e-09,3.0187e-09,3.6801e-10,9.7607e-11,2.1149e-10,1.3329e-08
36.3000,2.8633e-11,2.2085e-07,1.8498e-08,1.2316e-08,7.9734e-09,2.9361e-09,3.8593e-10,9.5226e-11,2.0781e-10,1.4332e-08
37.2940,3.7633e-11,2.2190e-07,1.8387e-08,1.2417e-08,8.2439e-09,2.8921e-09,4.1806e-10,9.7031e-11,2.0850e-10,1.5946e-08
38.2890,4.7344e-11,2.2299e-07,1.9306e-08,1.3112e-08,8.6237e-09,2.9570e-09,4.4782e-10,1.0269e-10,2.1723e-10,1.8167e-08
39.2830,5.4581e-11,2.2813e-07,1.9344e-08,1.3812e-08,9.3745e-09,3.0628e-09,4.9106e-10,1.1097e-10,2.3558e-10,2.0878e-08
40.2780,5.9994e-11,2.2712e-07,1.9247e-08,1.3842e-08,9.6501e-09,3.1477e-09,5.3196e-10,1.2162e-10,2.6060e-10,2.3764e-08
41.2720,6.8264e-11,2.2298e-07,1.9449e-08,1.4095e-08,1.0200e-08,3.3554e-09,5.8568e-10,1.4022e-10,3.0560e-10,2.8133e-08
42.2670,8.5949e-11,2.2668e-07,2.0084e-08,1.4747e-08,1.1513e-08,3.7014e-09,6.5689e-10,1.7092e-10,3.7902e-10,3.5207e-08
43.2610,1.1886e-10,2.4623e-07,2.2095e-08,1.6438e-08,1.3159e-08,4.3140e-09,7.5377e-10,2.2200e-10,4.9306e-10,4.4797e-08
44.2560,1.7252e-10,2.4609e-07,2.2823e-08,1.6998e-08,1.4616e-08,4.7413e-09,8.3837e-10,2.3997e-10,5.4059e-10,5.5661e-08
45.2500,2.5509e-10,2.3601e-07,2.2092e-08,1.6481e-08,1.4299e-08,4.6449e-09,8.9472e-10,2.3201e-10,5.2186e-10,6.8029e-08
46.2440,3.8478e-10,2.2793e-07,2.1903e-08,1.6081e-08,1.4146e-08,4.6260e-09,9.7468e-10,2.2604e-10,5.0472e-10,8.3953e-08
47.2390,5.8869e-10,2.2057e-07,2.1694e-08,1.5836e-08,1.4107e-08,4.6581e-09,1.0878e-09,2.1937e-10,4.8839e-10,1.0166e-07
48.2330,9.0631e-10,2.2273e-07,2.2107e-08,1.6031e-08,1.4485e-08,4.8339e-09,1.3151e-09,2.1539e-10,4.7231e-10,1.3148e-07
49.2280,1.3572e-09,2.2108e-07,2.2099e-08,1.5934e-08,1.4635e-08,4.9450e-09,1.4209e-09,2.1124e-10,4.6110e-10,1.5757e-07
50.2220,1.9628e-09,2.1291e-07,2.1967e-08,1.5472e-08,1.4510e-08,4.9641e-09,1.2636e-09,2.0869e-10,4.5100e-10,1.4802e-07
51.2170,2.7390e-09,2.2875e-07,2.1647e-08,1.5440e-08,1.4600e-08,5.0748e-09,1.1028e-09,2.0641e-10,4.4028e-10,1.3645e-07
52.2110,4.0009e-09,2.3190e-07,2.1736e-08,1.5494e-08,1.4898e-08,5.3278e-09,9.2253e-10,2.0489e-10,4.2798e-10,1.2335e-07
53.2060,5.8982e-09,2.6546e-07,2.2037e-08,1.5815e-08,1.5347e-08,5.7581e-09,7.0412e-10,2.0380e-10,4.1336e-10,1.0360e-07
54.2000,7.6054e-09,3.0058e-07,2.3115e-08,1.6292e-08,1.5737e-08,6.2686e-09,4.0849e-10,2.0383e-10,3.9961e-10,6.8589e-08
55.1940,9.2628e-09,2.9999e-07,2.3574e-08,1.6726e-08,1.5594e-08,6.2378e-09,4.0748e-10,1.9697e-10,3.8628e-10,6.7090e-08
56.1890,1.2528e-08,2.9877e-07,2.4619e-08,1.7516e-08,1.5469e-08,6.2804e-09,4.1260e-10,1.8942e-10,3.7217e-10,6.4272e-08
57.1830,1.7861e-08,2.9879e-07,2.6106e-08,1.8737e-08,1.5389e-08,6.3878e-09,4.2275e-10,1.8134e-10,3.5636e-10,6.0721e-08
58.1780,2.0824e-08,2.9880e-07,2.7613e-08,2.0388e-08,1.5338e-08,6.6087e-09,4.4441e-10,1.7150e-10,3.3849e-10,5.5518e-08
59.1720,2.2215e-08,3.0266e-07,3.0976e-08,2.2846e-08,1.5429e-08,7.0439e-09,4.9271e-10,1.5975e-10,3.1572e-10,4.5783e-08
60.1670,3.3513e-08,3.0465e-07,3.2774e-08,2.5723e-08,1.5523e-08,7.2556e-09,5.1283e-10,1.4827e-10,2.9407e-10,4.4983e-08
61.1610,3.8870e-08,3.0085e-07,3.4755e-08,2.9491e-08,1.5328e-08,7.2391e-09,5.0989e-10,1.3742e-10,2.7297e-10,5.1886e-08
62.1560,3.9690e-08,2.9863e-07,3.6350e-08,3.4603e-08,1.5345e-08,7.2737e-09,5.1943e-10,1.2592e-10,2.4824e-10,5.6094e-08
63.1500,5.4224e-08,3.0373e-07,3.8714e-08,3.9561e-08,1.5311e-08,7.3725e-09,5.4316e-10,1.1380e-10,2.1980e-10,6.9200e-08
64.1440,6.7414e-08,3.0185e-07,4.1866e-08,4.6651e-08,1.5295e-08,7.5571e-09,5.8993e-10,9.9724e-11,1.8491e-10,8.2510e-08
65.1390,1.0621e-07,2.9857e-07,4.6057e-08,5.8608e-08,1.5062e-08,7.8668e-09,6.8983e-10,7.6257e-11,1.2498e-10,1.1519e-07
66.1330,1.0059e-07,2.9782e-07,4.7040e-08,6.2653e-08,1.5515e-08,8.0318e-09,7.0879e-10,7.0930e-11,1.1702e-10,1.1369e-07
67.1280,9.4750e-08,3.0726e-07,4.8206e-08,5.9508e-08,1.6109e-08,8.2412e-09,7.2686e-10,7.0083e-11,1.1742e-10,1.0928e-07
68.1220,8.7877e-08,3.0585e-07,4.8901e-08,5.7747e-08,1.6859e-08,8.5941e-09,7.6275e-10,6.9397e-11,1.1754e-10,1.0518e-07
69.1170,7.9255e-08,3.0873e-07,4.9681e-08,5.5374e-08,1.7829e-08,9.0218e-09,8.2744e-10,6.8951e-11,1.1719e-10,9.8534e-08
70.1110,6.7070e-08,3.1427e-07,5.2465e-08,5.4957e-08,1.8938e-08,9.7068e-09,9.5648e-10,6.8516e-11,1.1643e-10,9.2069e-08
71.1060,4.4146e-08,3.4554e-07,5.6260e-08,5.2288e-08,2.0355e-08,1.0721e-08,1.2306e-09,6.8840e-11,1.1436e-10,7.9785e-08
72.1000,3.9162e-08,3.2234e-07,5.4999e-08,4.9726e-08,2.1462e-08,1.1553e-08,1.5947e-09,7.2809e-11,1.1690e-10,7.4657e-08
73.0940,3.5353e-08,3.2308e-07,5.3976e-08,4.8351e-08,2.2611e-08,1.2477e-08,2.1983e-09,8.3692e-11,1.2348e-10,7.2029e-08
74.0890,3.3629e-08,3.0587e-07,4.9608e-08,4.7903e-08,2.3919e-08,1.3473e-08,3.1154e-09,1.0628e-10,1.3387e-10,6.7948e-08
75.0830,2.8273e-08,2.8941e-07,4.7520e-08,4.6436e-08,2.5139e-08,1.4461e-08,4.4100e-09,1.4922e-10,1.4918e-10,6.2863e-08
76.0780,2.0959e-08,2.7152e-07,4.3637e-08,4.6140e-08,2.6453e-08,1.5475e-08,6.1035e-09,2.2460e-10,1.6981e-10,5.5050e-08
77.0720,1.2081e-08,2.3120e-07,3.6991e-08,4.0894e-08,2.7722e-08,1.6496e-08,8.3510e-09,3.5087e-10,1.9935e-10,4.1897e-08
78.0670,5.6367e-09,2.1086e-07,3.2923e-08,3.9495e-08,2.8763e-08,1.7390e-08,1.0244e-08,5.0934e-10,2.2838e-10,3.3665e-08
79.0610,3.5779e-09,2.0916e-07,3.2617e-08,4.3565e-08,2.9899e-08,1.8105e-08,1.1438e-08,6.6290e-10,2.4272e-10,3.4302e-08
80.0560,5.5106e-09,2.0905e-07,3.6037e-08,4.8024e-08,2.9884e-08,1.8803e-08,1.2650e-08,8.2390e-10,2.5393e-10,3.6779e-08
81.0500,6.9324e-09,2.0035e-07,3.4807e-08,4.6469e-08,3.1918e-08,1.9747e-08,1.4062e-08,9.9286e-10,2.5941e-10,3.7777e-08
82.0440,7.2907e-09,1.8412e-07,3.4494e-08,6.1348e-08,3.2216e-08,2.0808e-08,1.5447e-08,1.1736e-09,2.5810e-10,4.0968e-08
83.0390,9.0223e-09,1.8361e-07,3.6608e-08,5.9691e-08,3.4738e-08,2.2379e-08,1.7381e-08,1.4130e-09,2.4879e-10,4.2344e-08
84.0330,1.2508e-08,1.3859e-07,3.7788e-08,7.7986e-08,3.6991e-08,2.3895e-08,1.9887e-08,1.7326e-09,2.2810e-10,4.7755e-08
85.0280,1.2581e-08,1.2634e-07,3.8030e-08,7.8539e-08,3.7018e-08,2.4632e-08,1.8907e-08,1.6389e-09,2.2360e-10,4.7666e-08
86.0220,1.2271e-08,1.3218e-07,3.6974e-08,7.6009e-08,3.7887e-08,2.2801e-08,2.7591e-08,1.5780e-09,2.1980e-10,5.1403e-08
87.0170,1.2167e-08,1.2900e-07,3.7869e-08,7.4522e-08,3.6907e-08,2.3325e-08,1.9369e-08,1.4207e-09,2.1642e-10,4.6616e-08
88.0110,1.2583e-08,1.2363e-07,3.5555e-08,7.5085e-08,3.6452e-08,2.3355e-08,1.8255e-08,1.7758e-09,1.8187e-10,4.6290e-08
89.0060,1.2295e-08,1.1973e-07,3.5990e-08,7.4066e-08,3.5622e-08,2.3064e-08,1.8689e-08,1.5864e-09,2.5328e-10,4.5995e-08
