# Drift and bounce averaged energy diffusion coefficients in s^(-1) in figure 16g for E = 1000.0keV, L* = 4.5 and Kp = 5
# Pitch Angle, 2.01 <= fpe/fce < 2.53, 2.53 <= fpe/fce < 3.19, 3.19 <= fpe/fce < 4.03, 4.03 <= fpe/fce < 5.08, 5.08 <= fpe/fce < 6.40, 6.40 <= fpe/fce < 8.08, 8.08 <= fpe/fce < 10.19, 10.19 <= fpe/fce < 12.85, 12.85 <= fpe/fce < 16.20, Average over fpe/fce
0.5000,7.7503e-15,3.7845e-10,4.1162e-11,2.7589e-11,2.3885e-11,1.1528e-11,7.7288e-13,1.7926e-13,5.0516e-13,5.1723e-11
1.4940,7.4212e-14,3.4071e-09,3.7068e-10,2.4845e-10,2.1492e-10,1.0379e-10,6.9658e-12,1.6145e-12,4.5412e-12,4.6563e-10
2.4890,2.3215e-13,9.5257e-09,1.0370e-09,6.9501e-10,6.0023e-10,2.9019e-10,1.9518e-11,4.5165e-12,1.2659e-11,1.3017e-09
3.4830,5.3223e-13,1.8811e-08,2.0497e-09,1.3738e-09,1.1835e-09,5.7315e-10,3.8672e-11,8.9266e-12,2.4884e-11,2.5705e-09
4.4780,1.0563e-12,3.1348e-08,3.4196e-09,2.2921e-09,1.9679e-09,9.5527e-10,6.4727e-11,1.4884e-11,4.1205e-11,4.2831e-09
5.4720,1.9295e-12,4.7228e-08,5.1590e-09,3.4581e-09,2.9564e-09,1.4394e-09,9.8044e-11,2.2433e-11,6.1527e-11,6.4512e-09
6.4670,3.3385e-12,6.6538e-08,7.2817e-09,4.8813e-09,4.1514e-09,2.0287e-09,1.3905e-10,3.1635e-11,8.5532e-11,9.0874e-09
7.4610,5.5572e-12,8.9395e-08,9.8021e-09,6.5720e-09,5.5550e-09,2.7267e-09,1.8826e-10,4.2613e-11,1.1239e-10,1.2204e-08
8.4560,8.9800e-12,1.1595e-07,1.2738e-08,8.5417e-09,7.1685e-09,3.5374e-09,2.4630e-10,5.5523e-11,1.4107e-10,1.5816e-08
9.4500,1.4165e-11,1.4632e-07,1.6103e-08,1.0805e-08,8.9931e-09,4.4655e-09,3.1385e-10,7.0675e-11,1.7183e-10,1.9935e-08
10.4440,2.1884e-11,1.8031e-07,1.9918e-08,1.3375e-08,1.1030e-08,5.5161e-09,3.9164e-10,8.8444e-11,2.0491e-10,2.4576e-08
11.4390,3.3190e-11,2.1836e-07,2.4206e-08,1.6286e-08,1.3279e-08,6.6942e-09,4.8065e-10,1.0897e-10,2.4096e-10,2.9761e-08
12.4330,4.9480e-11,2.6060e-07,2.8980e-08,1.9530e-08,1.5777e-08,8.0262e-09,5.8218e-10,1.3281e-10,2.8203e-10,3.5512e-08
13.4280,7.2571e-11,3.0732e-07,3.4273e-08,2.3137e-08,1.8474e-08,9.4789e-09,7.0067e-10,1.6271e-10,3.3054e-10,4.1814e-08
14.4220,1.0476e-10,3.5849e-07,4.0146e-08,2.7133e-08,2.1397e-08,1.1056e-08,8.3126e-10,1.9875e-10,3.8464e-10,4.8701e-08
15.4170,1.4886e-10,4.1443e-07,4.6568e-08,3.1649e-08,2.4956e-08,1.2784e-08,9.7299e-10,2.4383e-10,4.3349e-10,5.6321e-08
16.4110,2.0823e-10,4.7576e-07,5.3516e-08,3.6531e-08,2.8441e-08,1.4735e-08,1.1463e-09,3.0342e-10,4.9896e-10,6.4494e-08
17.4060,2.8668e-10,5.4759e-07,6.1090e-08,4.1908e-08,3.2161e-08,1.6706e-08,1.3351e-09,3.6001e-10,5.5544e-10,7.3277e-08
18.4000,3.8836e-10,6.2224e-07,6.9459e-08,4.7987e-08,3.5936e-08,1.8790e-08,1.5579e-09,4.2309e-10,6.1384e-10,8.2748e-08
19.3940,5.1747e-10,7.0239e-07,7.8133e-08,5.4451e-08,4.0331e-08,2.1178e-08,1.8234e-09,5.0017e-10,6.9541e-10,9.2962e-08
20.3890,6.7801e-10,7.8962e-07,8.7507e-08,6.1386e-08,4.4795e-08,2.3387e-08,2.0989e-09,6.0133e-10,7.6986e-10,1.0369e-07
21.3830,8.7315e-10,8.7880e-07,9.7154e-08,6.8740e-08,4.9527e-08,2.5727e-08,2.3939e-09,7.3609e-10,8.9295e-10,1.1498e-07
22.3780,1.1049e-09,9.7906e-07,1.0758e-07,7.6356e-08,5.4654e-08,2.8125e-08,2.7306e-09,8.7017e-10,1.0756e-09,1.2680e-07
23.3720,1.3731e-09,1.0881e-06,1.1898e-07,8.4215e-08,5.9831e-08,3.0538e-08,3.0883e-09,9.8783e-10,1.3606e-09,1.3906e-07
24.3670,1.6757e-09,1.2078e-06,1.3159e-07,9.2465e-08,6.5246e-08,3.3018e-08,3.4832e-09,1.1034e-09,1.7172e-09,1.5187e-07
25.3610,2.0076e-09,1.3325e-06,1.4451e-07,1.0165e-07,7.0836e-08,3.5516e-08,3.9737e-09,1.2717e-09,2.2827e-09,1.6545e-07
26.3560,2.3614e-09,1.4642e-06,1.5844e-07,1.1142e-07,7.6615e-08,3.8207e-08,4.5063e-09,1.4196e-09,2.9894e-09,1.7957e-07
27.3500,2.7277e-09,1.6025e-06,1.7346e-07,1.2162e-07,8.2950e-08,4.0416e-08,4.9973e-09,1.4558e-09,3.3769e-09,1.9431e-07
28.3440,3.0947e-09,1.7516e-06,1.8888e-07,1.3322e-07,8.9830e-08,4.2515e-08,5.5144e-09,1.4875e-09,3.5219e-09,2.0950e-07
29.3390,3.4496e-09,1.8947e-06,2.0331e-07,1.4446e-07,9.7205e-08,4.4478e-08,6.0544e-09,1.5332e-09,3.7723e-09,2.2448e-07
30.3330,3.7806e-09,2.0495e-06,2.1610e-07,1.5442e-07,1.0468e-07,4.6937e-08,6.8818e-09,1.7436e-09,4.1158e-09,2.3867e-07
31.3280,4.0776e-09,2.2089e-06,2.2895e-07,1.6386e-07,1.1202e-07,4.8940e-08,7.5476e-09,1.7628e-09,4.1425e-09,2.5274e-07
32.3220,4.3362e-09,2.3899e-06,2.4920e-07,1.7433e-07,1.1965e-07,5.1073e-08,8.3149e-09,1.8496e-09,4.0119e-09,2.6861e-07
33.3170,4.5594e-09,2.5808e-06,2.7247e-07,1.9238e-07,1.2858e-07,5.2701e-08,9.1232e-09,1.9870e-09,4.0133e-09,2.8773e-07
34.3110,4.7584e-09,2.7824e-06,2.9353e-07,2.1163e-07,1.4062e-07,5.4820e-08,1.0257e-08,2.2068e-09,4.1913e-09,3.0557e-07
35.3060,4.9533e-09,2.9844e-06,3.0778e-07,2.2135e-07,1.5146e-07,5.6582e-08,1.1020e-08,2.2467e-09,4.4521e-09,3.1736e-07
36.3000,5.1746e-09,3.1799e-06,3.2337e-07,2.3184e-07,1.6397e-07,5.8701e-08,1.1822e-08,2.2794e-09,4.6329e-09,3.2903e-07
37.2940,5.4612e-09,3.3876e-06,3.4560e-07,2.4511e-07,1.7647e-07,6.1472e-08,1.2756e-08,2.3346e-09,4.7946e-09,3.4149e-07
38.2890,5.8606e-09,3.5327e-06,3.6883e-07,2.6170e-07,1.8921e-07,6.5574e-08,1.3811e-08,2.5885e-09,5.0569e-09,3.5459e-07
39.2830,6.4214e-09,3.6692e-06,3.8623e-07,2.7705e-07,2.0107e-07,7.0096e-08,1.5060e-08,2.9243e-09,5.4238e-09,3.6617e-07
40.2780,7.1904e-09,3.8185e-06,3.9373e-07,2.8621e-07,2.1050e-07,7.3673e-08,1.6162e-08,3.3047e-09,5.8537e-09,3.7138e-07
41.2720,8.2150e-09,4.0259e-06,4.0467e-07,2.9856e-07,2.2478e-07,7.7642e-08,1.7508e-08,3.8792e-09,7.0444e-09,3.7932e-07
42.2670,9.5496e-09,4.3882e-06,4.4044e-07,3.2127e-07,2.4804e-07,8.3720e-08,1.8991e-08,4.4819e-09,9.0027e-09,3.9666e-07
43.2610,1.1290e-08,4.6292e-06,4.7081e-07,3.4864e-07,2.8356e-07,1.0059e-07,2.1018e-08,4.6308e-09,1.0063e-08,4.1650e-07
44.2560,1.3581e-08,4.6647e-06,4.8241e-07,3.5630e-07,2.9209e-07,1.0782e-07,2.3499e-08,5.3067e-09,1.0053e-08,4.2211e-07
45.2500,1.6635e-08,4.6847e-06,4.8151e-07,3.5592e-07,2.9384e-07,1.0858e-07,2.5282e-08,5.2982e-09,9.8980e-09,4.2147e-07
46.2440,2.0787e-08,4.7213e-06,4.8072e-07,3.5751e-07,2.9629e-07,1.1039e-07,2.7480e-08,5.2730e-09,1.0032e-08,4.2159e-07
47.2390,2.6519e-08,4.9325e-06,4.9269e-07,3.6286e-07,3.0226e-07,1.1218e-07,2.8995e-08,5.1876e-09,9.9459e-09,4.2187e-07
48.2330,3.4649e-08,5.1801e-06,5.1073e-07,3.8069e-07,3.2496e-07,1.1992e-07,2.9813e-08,5.1712e-09,9.7336e-09,4.2630e-07
49.2280,4.5967e-08,5.2665e-06,5.1754e-07,3.8142e-07,3.2769e-07,1.2637e-07,4.0387e-08,5.1175e-09,9.7357e-09,4.3032e-07
50.2220,6.0701e-08,5.3737e-06,5.1722e-07,3.7927e-07,3.2924e-07,1.2730e-07,3.6529e-08,5.2136e-09,9.7487e-09,4.1946e-07
51.2170,7.9431e-08,5.5117e-06,5.1988e-07,3.8191e-07,3.3105e-07,1.3153e-07,3.2310e-08,5.2349e-09,9.7899e-09,4.1537e-07
52.2110,1.0397e-07,5.5425e-06,5.1280e-07,3.9087e-07,3.3406e-07,1.3986e-07,2.8473e-08,5.2217e-09,9.9000e-09,4.1582e-07
53.2060,1.3302e-07,5.7484e-06,5.1905e-07,3.9997e-07,3.4556e-07,1.4744e-07,2.5381e-08,5.2628e-09,9.7354e-09,4.3222e-07
54.2000,1.6256e-07,6.5281e-06,5.4765e-07,4.1827e-07,3.7173e-07,1.7121e-07,1.5869e-08,5.3694e-09,9.7403e-09,4.5878e-07
55.1940,1.9423e-07,6.5359e-06,5.5605e-07,4.3427e-07,3.7246e-07,1.7368e-07,1.6294e-08,5.2430e-09,9.4980e-09,4.9131e-07
56.1890,2.3064e-07,6.5435e-06,5.6935e-07,4.5525e-07,3.7412e-07,1.7735e-07,1.6813e-08,5.1297e-09,9.2206e-09,5.2999e-07
57.1830,2.7360e-07,6.5605e-06,5.8692e-07,4.8403e-07,3.7631e-07,1.8634e-07,1.7330e-08,4.9412e-09,8.9253e-09,5.7981e-07
58.1780,3.2011e-07,6.6357e-06,6.1825e-07,5.2322e-07,3.7817e-07,1.9644e-07,1.8724e-08,4.7124e-09,8.5106e-09,6.5358e-07
59.1720,3.7426e-07,6.7221e-06,6.5564e-07,5.7439e-07,3.8946e-07,2.1438e-07,1.9605e-08,4.5246e-09,7.9028e-09,7.4501e-07
60.1670,4.3260e-07,6.7622e-06,6.7806e-07,6.2783e-07,3.9205e-07,2.2578e-07,2.1430e-08,4.2481e-09,7.4013e-09,8.2596e-07
61.1610,4.8199e-07,6.7044e-06,7.0023e-07,6.7952e-07,3.9416e-07,2.3206e-07,2.2107e-08,4.0815e-09,6.9528e-09,8.9875e-07
62.1560,8.3901e-07,6.6440e-06,7.4111e-07,7.4612e-07,3.9889e-07,2.3966e-07,2.3267e-08,3.9265e-09,6.4929e-09,1.1588e-06
63.1500,1.2876e-06,6.6692e-06,8.0863e-07,8.3911e-07,4.0675e-07,2.5409e-07,2.4646e-08,3.6746e-09,6.0269e-09,1.5886e-06
64.1440,1.6665e-06,6.3670e-06,9.8881e-07,1.0655e-06,4.1634e-07,2.6770e-07,2.7504e-08,3.3727e-09,5.0606e-09,2.0154e-06
65.1390,2.6571e-06,6.6679e-06,1.1312e-06,1.4500e-06,4.1245e-07,2.8404e-07,3.1286e-08,3.2189e-09,4.2384e-09,2.8729e-06
66.1330,2.6849e-06,6.7633e-06,1.1705e-06,1.4646e-06,4.2582e-07,2.9790e-07,3.3359e-08,2.8111e-09,3.8347e-09,2.9215e-06
67.1280,2.7331e-06,6.8444e-06,1.1878e-06,1.4651e-06,4.4473e-07,3.1262e-07,3.6323e-08,2.9546e-09,3.8776e-09,2.9725e-06
68.1220,2.2436e-06,7.2616e-06,1.1873e-06,1.4486e-06,4.6673e-07,3.2905e-07,4.0436e-08,3.1731e-09,3.9218e-09,2.7242e-06
69.1170,2.0777e-06,7.7008e-06,1.2215e-06,1.4163e-06,4.8867e-07,3.5278e-07,4.6000e-08,3.4728e-09,3.9908e-09,2.6704e-06
70.1110,1.8817e-06,7.8278e-06,1.3763e-06,1.1882e-06,5.0970e-07,3.7525e-07,5.4730e-08,3.8815e-09,4.0624e-09,2.5312e-06
71.1060,1.2144e-06,8.3720e-06,1.4656e-06,1.1924e-06,5.3952e-07,4.0586e-07,6.7093e-08,4.5002e-09,4.1561e-09,2.1572e-06
72.1000,1.0296e-06,8.3903e-06,1.5046e-06,1.1871e-06,5.5605e-07,4.2545e-07,8.1849e-08,5.4146e-09,4.3346e-09,2.0515e-06
73.0940,7.6245e-07,8.1425e-06,1.5424e-06,1.2186e-06,5.7244e-07,4.4429e-07,1.0299e-07,6.6554e-09,4.6200e-09,1.8677e-06
74.0890,6.5667e-07,7.0203e-06,1.5485e-06,1.3150e-06,5.9853e-07,4.7065e-07,1.2922e-07,8.0676e-09,4.9784e-09,1.7245e-06
75.0830,5.8441e-07,6.6560e-06,1.2710e-06,1.4912e-06,6.3983e-07,5.0545e-07,1.5956e-07,9.8574e-09,5.3961e-09,1.5497e-06
76.0780,6.5101e-07,6.3259e-06,1.0223e-06,1.4946e-06,7.1691e-07,5.1998e-07,2.0287e-07,1.2270e-08,5.7949e-09,1.4500e-06
77.0720,6.9498e-07,5.8427e-06,9.1168e-07,9.8743e-07,8.0947e-07,5.1859e-07,2.5141e-07,1.5591e-08,6.2998e-09,1.2434e-06
78.0670,1.2214e-07,5.7746e-06,8.7410e-07,8.6598e-07,8.0163e-07,5.0731e-07,2.9306e-07,1.9538e-08,6.8233e-09,9.2035e-07
79.0610,9.0301e-08,5.0197e-06,9.1956e-07,8.2413e-07,7.3459e-07,5.3038e-07,3.0612e-07,2.2263e-08,6.8745e-09,8.1230e-07
80.0560,9.0328e-08,5.2285e-06,1.0082e-06,8.5106e-07,6.3000e-07,6.0899e-07,3.4510e-07,2.3133e-08,6.8564e-09,8.2551e-07
81.0500,8.0534e-08,4.8360e-06,1.5212e-06,9.8517e-07,5.9648e-07,6.1054e-07,4.0543e-07,2.5895e-08,6.8198e-09,9.5185e-07
82.0440,6.0296e-08,4.1745e-06,1.1785e-06,1.7449e-06,6.3743e-07,4.4338e-07,4.4333e-07,3.1443e-08,6.7355e-09,1.0186e-06
83.0390,6.6335e-08,3.6467e-06,7.2354e-07,2.4318e-06,8.9498e-07,4.3911e-07,3.8178e-07,3.7273e-08,6.4498e-09,1.1615e-06
84.0330,2.0542e-07,1.9062e-06,6.8414e-07,3.2248e-06,1.1184e-06,5.0735e-07,3.9334e-07,4.3212e-08,5.9340e-09,1.2602e-06
85.0280,2.4078e-07,1.5157e-06,6.3617e-07,1.9263e-06,1.4275e-06,5.9959e-07,4.2373e-07,3.0519e-08,5.0234e-09,1.2184e-06
86.0220,3.0718e-07,1.3949e-06,5.9263e-07,1.0714e-06,1.1461e-06,7.7328e-07,5.0788e-07,3.4373e-08,4.5896e-09,1.2127e-06
87.0170,3.9594e-07,1.7052e-06,6.3894e-07,9.4915e-07,5.4868e-07,5.0405e-07,8.4485e-07,4.6366e-08,5.3641e-09,1.0562e-06
88.0110,4.9668e-07,2.3579e-06,7.2064e-07,9.8481e-07,4.1702e-07,3.9195e-07,2.9749e-07,8.1645e-08,7.4529e-09,7.8547e-07
89.0060,5.7299e-07,3.2799e-06,6.9939e-07,9.3185e-07,3.6897e-07,4.7720e-07,1.8186e-07,7.1026e-09,1.4343e-08,7.2465e-07
